-5.335260911469084100e-01 -7.985680848134334431e-01 -7.296571664601311236e-01 -7.123778053145995992e-01 -6.795401349304653893e-01 -6.672174032768783958e-01 -7.171279085777100271e-01 -9.885033732617138913e-01
-4.306760291890397996e-01 -8.582541649456051358e-01 -2.880352471430535632e-01 -5.988572215337963911e-01 -8.277571251548860864e-01 -5.457111386479378545e-01 -4.550461241911020749e-01 -6.483546743769514897e-01
-5.614759741153737549e-01 -7.187801184083704165e-01 -5.842627013630636856e-01 -3.891642571939930573e-01 -8.011840837119614811e-01 -6.923447611179860406e-01 -5.552113451741587102e-01 -8.254853366377324919e-01
-4.516728624535296666e-01 -1.139887098994892156e+00 -4.697783285143855014e-01 -8.683051080820524126e-01 -8.326449125705607246e-01 -6.615035109458864415e-01 -6.493873055211257794e-01 -9.431364449951551432e-01
-5.758639680572610331e-01 -7.970535591353331561e-01 -8.247969158749752783e-01 -6.941346551011943200e-01 -6.805727660746255792e-01 -7.634586259121521890e-01 -7.996007159575762024e-01 -8.661021616411767043e-01
-4.579374913947332759e-01 -9.790031667354996969e-01 -3.985956216439484612e-01 -2.709624122263520341e-01 -5.734544953875791995e-01 -4.603469640644353711e-01 -6.530359355638142294e-01 -6.266694203496832039e-01
-6.296296296296243211e-01 -5.821974390747572947e-01 -1.222635274679882839e-01 -1.363761531047790465e-01 -7.191931708660316280e-01 -8.855156271513122679e-01 -4.513974941484238390e-01 -7.165771719674922657e-01
-5.315985130111451351e-01 -8.137821836706549128e-01 -7.847996695580260473e-01 -1.124535315985125905e+00 -8.261049153242323584e-01 -4.653035935563780701e-01 -4.997934737711595132e-01 -7.423929505713652288e-01
-1.036968194960745882e+00 -7.187801184083617567e-01 -4.462343384276455938e-01 -4.485749690210613649e-01 -8.446922759190390595e-01 -8.430400660883845543e-01 -6.902106567533987658e-01 -1.064918077929206675e+00
-3.415255404102934822e-01 -9.277158199091216639e-01 -3.435908026986084773e-01 -6.215062646289407633e-01 -5.713892330992692559e-01 -2.236679058240386153e-01 -1.806416081508970262e-01 -6.107669007296973041e-01
-8.040066088393085231e-01 -6.422965716645939738e-01 -1.947542337876923546e-01 -3.528844829960050555e-01 -8.018725044747297970e-01 -8.623846895222293529e-01 -5.609252375051544393e-01 -9.986231584744248435e-01
-6.504199366652713143e-01 -1.012185047501020119e+00 -3.049703979072013182e-01 -8.468263802836242249e-01 -8.705768965991994568e-01 -4.242737160952745334e-01 -3.979072008811897904e-02 -8.206663912983382936e-01
-4.456836018174290537e-01 -1.021685254027250966e+00 -4.357703428335368279e-01 -7.361971637064511631e-01 -6.387167836981925140e-01 -5.733168112350264245e-01 -7.565055762081599466e-01 -9.154619303317873547e-01
-4.530497039790699620e-01 -8.594244802423132157e-01 -5.410987195373753167e-01 -3.685116343108912895e-01 -7.993941897287574205e-01 -7.933360870163775891e-01 -9.546330717334268190e-01 -7.825967231171401250e-01
-6.776813988709821102e-01 -1.041511771995028868e+00 -4.299187663499927647e-01 -1.012391573729860106e+00 -1.000826104915321091e+00 -4.781770618201747203e-01 -2.752994630318000846e-01 -1.034352196062206186e+00
-5.951397494148323863e-01 -8.882693102023899723e-01 -4.390747624948342365e-01 -7.480380008260957281e-01 -8.568773234200672828e-01 -7.256643260360665648e-01 -4.055486713479242167e-01 -7.901005094313428012e-01
-4.210381385102512919e-01 -7.949882968470280975e-01 -1.003442103813842134e+00 -1.004474734958001214e+00 -7.179540134930459949e-01 -6.950984441690700733e-01 -5.600302905135571274e-01 -9.458212859699554054e-01
-5.898389095415048633e-01 -8.196337601541926476e-01 -2.766074624810675453e-01 -5.095002065262268509e-01 -7.105190692551328624e-01 -5.757951259809988009e-01 -6.799531873881192734e-01 -8.318188076552135435e-01
-3.918490981687995367e-01 -8.873743632107826684e-01 -5.723530221671441209e-01 -7.028775987883733034e-01 -6.633622470053653908e-01 -5.762770205149356784e-01 -4.370095002065201850e-01 -7.430125292578575458e-01
-4.332231860112850108e-01 -1.023199779705344481e+00 -5.839873330579605781e-01 -7.647666253614180398e-01 -7.138234889164213337e-01 -4.965578961861487062e-01 -3.389783835880406659e-01 -7.034971774748461915e-01
-6.857359217953959973e-01 -9.658543301665823977e-01 -2.918904034145619261e-02 -6.861489742530566538e-01 -1.053903345724900076e+00 -5.984441690761291843e-01 -3.932259396943308949e-01 -7.206388544678358210e-01
-7.755748313369037472e-01 -8.992152003304257901e-01 -7.726146220569919398e-01 -4.591766487677236275e-01 -7.607737849373433781e-01 -8.201156546881379628e-01 -5.296709348753887436e-01 -9.673688558446676966e-01
-6.902794988296788725e-01 -1.049290926614332431e+00 -2.996695580338699649e-01 -6.195786864931795979e-01 -8.453118546055350402e-01 -6.998485474321836097e-01 -7.158887512047215074e-01 -8.000137684152378581e-01
-7.275919041718217350e-01 -1.110698058653436737e+00 -6.175822662811457642e-01 -5.481206113176333439e-01 -7.539584193859282246e-01 -7.588462068015965345e-01 -9.965578961861302210e-01 -1.118201844967620540e+00
-5.963100647115447961e-01 -1.139198678232124395e+00 -8.508880627839711108e-01 -8.457249070631914778e-01 -7.863141952361221154e-01 -6.295607875533389963e-01 -5.826793336086828479e-01 -9.635136995731556908e-01
-4.383863417320614797e-01 -9.080269860938914306e-01 -4.874707421175792921e-01 -3.333333333333325932e-01 -4.554591766487666171e-01 -4.172518243150194484e-01 -5.638166047087929122e-01 -5.945890128045958622e-01
-5.585157648354626136e-01 -6.471843590802660584e-01 -6.302492083161146397e-01 -4.755610629216538432e-01 -7.998760842626996270e-01 -8.406305934186877327e-01 -5.220983064849222810e-01 -6.187525815778485150e-01
-5.315985130111472445e-01 -9.827206388544581506e-01 -4.199366652898245955e-01 -3.923309927027390787e-01 -6.393363623846901600e-01 -6.331405755197487828e-01 -3.876497315158990986e-01 -8.797328927440225543e-01
-4.745284317774993155e-01 -1.030428197714429617e+00 -7.255266418835191189e-01 -9.924273716095167730e-01 -8.967368855844638498e-01 -4.220019275781308754e-01 -3.796640506677623206e-01 -8.284455459176343073e-01
-7.834916701087644153e-01 -6.787828720914177438e-01 -8.997659369406550700e-02 -5.943824865757880715e-01 -9.966955803387015367e-01 -8.024232410849457819e-01 -5.880490155583025791e-01 -1.241498003579760034e+00
-6.431226765799200606e-01 -9.281288723667779905e-01 -2.503097893432469911e-01 -6.310753132314423919e-01 -8.599752168525354179e-01 -9.334297122401158386e-01 -8.413190141814558265e-01 -8.525402726145987486e-01
-4.453393914360384565e-01 -7.812887236678949243e-01 -3.707145807517566727e-01 -3.809032080407517840e-01 -5.406856670797197673e-01 -6.521409885722071476e-01 -7.827344072697071109e-01 -7.274542200192511965e-01
-2.176098031116628362e-01 -6.643260360732458070e-01 -4.293680297397750034e-01 -6.025058515764758482e-01 -5.680159713616909078e-01 -6.465647803937675242e-01 -7.946440864656283409e-01 -4.072008811785514104e-01
-7.538895773096367936e-01 -9.000413052457557628e-01 -4.257193996970928263e-01 -5.370370370370345370e-01 -8.672724769378943321e-01 -8.308550185873516680e-01 -2.165083298912286736e-01 -6.593694065812806260e-01
-4.031391986782279502e-01 -1.226559273027664654e+00 -3.546055349029302306e-01 -6.051906925512848812e-01 -8.249346000275324942e-01 -4.074074074074035545e-01 -1.924824452705499733e-01 -7.442516866308444001e-01
-4.257193996970929928e-01 -8.219055486713426895e-01 -3.391849098168797094e-01 -5.199642021203342290e-01 -7.768828307861733729e-01 -7.669695718022829789e-01 -7.677268346413168576e-01 -8.372573316810957289e-01
-6.404378356051106946e-01 -7.780531460828767898e-01 -5.877048051769208081e-01 -8.815916288035184900e-01 -1.056106292165768901e+00 -8.354674376979164263e-01 -9.819633760154018454e-01 -9.604158061406912195e-01
-6.405755197576706861e-01 -9.999999999999896749e-01 -2.003304419661298963e-01 -5.051631557207760803e-01 -7.696544127770906796e-01 -6.939969709486389915e-01 -8.362935426132268590e-01 -1.036899352884458780e+00
-4.033457249070581674e-01 -9.980724218642298418e-01 -3.386341732066623922e-01 -7.206388544678478114e-01 -7.098994905686354384e-01 -5.503235577584969507e-01 -4.664739088530864275e-01 -7.937491394740231465e-01
-6.362384689522082581e-01 -8.538482720638794765e-01 -6.570976180641575626e-01 -8.849648905410886224e-01 -8.767726834641283995e-01 -5.471568222497579237e-01 -3.687181605397202300e-01 -8.146771306622369035e-01
3.384764679053953955e+02 4.586884627713509985e+02 6.659802673614827881e+02 5.584960976504701193e+02 2.889620858686482734e+02 3.624459127720849665e+02 5.310793527864813086e+02 4.445026215106445875e+02
3.458949257029506725e+02 4.560964577533613351e+02 6.711970852627148361e+02 5.922743729196099594e+02 2.833171587723622338e+02 3.820014558587309921e+02 5.431173168882553455e+02 4.469928263580269459e+02
3.362244666085059634e+02 4.632351794563754197e+02 6.885528268245506069e+02 5.843674139098686737e+02 2.788094327160843591e+02 3.764768063291757585e+02 5.574792248727488868e+02 4.465489883882871709e+02
3.250309496316606328e+02 4.555237332655293585e+02 6.951006631341324464e+02 5.948210841024609863e+02 2.887644334147331620e+02 3.687687328076062272e+02 5.456820411363777339e+02 4.353203242946213436e+02
3.255600921043123321e+02 4.588457740528980935e+02 6.649232485302966325e+02 5.929308853278914739e+02 2.745588501744907717e+02 3.815439380310202182e+02 5.324704418066958169e+02 4.312474575729392541e+02
3.399157235169524256e+02 4.794973561865607508e+02 6.703940610870776027e+02 5.808555343484753166e+02 2.858491755509785435e+02 3.809507544989099870e+02 5.472700881946392428e+02 4.367735390518025156e+02
3.275615728629543923e+02 4.779904554769296965e+02 6.508224466457089648e+02 5.695097644803278172e+02 2.823436313468217236e+02 3.710314341517475896e+02 5.345702317658758602e+02 4.146844381259040802e+02
3.308414564424355149e+02 4.641105108637801777e+02 6.451007354927273809e+02 5.577714247289775358e+02 2.834142049439685707e+02 3.700656762364956194e+02 5.310533869874843731e+02 4.458672748465716040e+02
3.337452256697800408e+02 4.805915060431807433e+02 6.391768903358441776e+02 5.667779901901353696e+02 2.729238349011701530e+02 3.889081737126971348e+02 5.302792198785430173e+02 4.317978646738673092e+02
3.403639468397313976e+02 4.915664395987089961e+02 6.650268579308656172e+02 5.750708413495029845e+02 2.909013816167772575e+02 3.879713825536010177e+02 5.455410984731166764e+02 4.454169954603225960e+02
3.297085919603087518e+02 4.409788911597506740e+02 6.442738565518984615e+02 5.770405558405950615e+02 2.764401617147242405e+02 3.731788453114575077e+02 5.403633196451013418e+02 4.350633328144759844e+02
3.326171576785278603e+02 4.740251165666138036e+02 6.510547281520229035e+02 5.822790987674765120e+02 2.602239215589597165e+02 4.012832301451061312e+02 5.568482032881797750e+02 4.367813462721484257e+02
3.345667523311321929e+02 4.632251252337414940e+02 6.364470310980548220e+02 5.767017146861367110e+02 2.756690063114963323e+02 3.761414992149252043e+02 5.573312515643103779e+02 4.376563532459218777e+02
3.285428528086345068e+02 4.476000925780463149e+02 6.389728049059938257e+02 5.790975049718574610e+02 2.721845955299910429e+02 3.754850333838281244e+02 5.551698405062758184e+02 4.487974280911198548e+02
3.430806074837720416e+02 4.458917780807857412e+02 6.257525924070113206e+02 5.557378335066380259e+02 2.743940513621757873e+02 3.924245203172811784e+02 5.378285885616847963e+02 4.640867312580154476e+02
3.441774760337589214e+02 4.638076319076454865e+02 6.411241622720865507e+02 5.724616425088082678e+02 2.754722186393670427e+02 3.766539840519809559e+02 5.544876712637268383e+02 4.503153666841026848e+02
3.453298176197588987e+02 4.568461706696498368e+02 6.301401506192071338e+02 5.515575319525319173e+02 2.886532739634670293e+02 3.809108213554504800e+02 5.680104057267196822e+02 4.554367590081295134e+02
3.510217720103797774e+02 4.627174335985091602e+02 6.325516034156804608e+02 5.582711131055909846e+02 2.871985221455387318e+02 3.744008019803495131e+02 5.499810754762647775e+02 4.473771260737481725e+02
3.429890950662978071e+02 4.577138747389720947e+02 6.377837984974812571e+02 5.542344499322736056e+02 2.898994796494479829e+02 3.786928944693064523e+02 5.608437191031740667e+02 4.709413235420479396e+02
3.306161865957848818e+02 4.591015545693622926e+02 6.341870463619044358e+02 5.475848277267516551e+02 2.891284155475293574e+02 3.828644725247581277e+02 5.652842400136984224e+02 4.624294342794647150e+02
3.505358931903269308e+02 4.566788561026971252e+02 6.374071061439587993e+02 5.452046091954637177e+02 2.901457244719945265e+02 3.824264577198437678e+02 5.705972665174545000e+02 4.576750896648176763e+02
3.326533370473794662e+02 4.623088566056263744e+02 6.385492183737273990e+02 5.489514864210985934e+02 2.743440512806446918e+02 3.829375576349672201e+02 5.634589502841038211e+02 4.489990728925813528e+02
3.454547409792904205e+02 4.837054046328610184e+02 6.551918310900167626e+02 5.805065256658207318e+02 3.024182442335992960e+02 3.996312363807604697e+02 5.915895960950306289e+02 4.457647005367877568e+02
3.340778659758041726e+02 4.657324795209434569e+02 6.335550509079467929e+02 5.773322224764258408e+02 2.892597168794371782e+02 3.864920995637044712e+02 5.690779173822701296e+02 4.481637097227076083e+02
3.564666640657929975e+02 4.631519028137773830e+02 6.511579941858245775e+02 5.691790767945064999e+02 2.919166129190586503e+02 3.931741475008757902e+02 5.885006334930953926e+02 4.638675934366572733e+02
3.514426790428079812e+02 4.708550959695594997e+02 6.300441428937926958e+02 5.605201707283497399e+02 2.792324578058170914e+02 3.958146796566542207e+02 5.807254813442863224e+02 4.617990867889714650e+02
3.473126642984903469e+02 4.758819234366356454e+02 6.341172427714433297e+02 5.635732358651408731e+02 2.940015998745060415e+02 3.888113768294077772e+02 5.877711969188929970e+02 4.675575280047245883e+02
3.400735919236380482e+02 4.649087610409079048e+02 6.319444021989014573e+02 5.536566918403531190e+02 2.867091754923818598e+02 3.835817159663337748e+02 5.626936626987273939e+02 4.689682564617777416e+02
3.443904774555596759e+02 4.608495491350804514e+02 6.285549135839791006e+02 5.725545344218207902e+02 2.849298571752929092e+02 3.910711226892607897e+02 5.767351750488996913e+02 4.594472316054183239e+02
3.501905604641773948e+02 4.712926614953403259e+02 6.442694066220432205e+02 5.542036418567244027e+02 2.809785103530161336e+02 3.773306453739464814e+02 5.488174917602281084e+02 4.608396547572248778e+02
3.501993630700515610e+02 4.662641447433942972e+02 6.294767915191214342e+02 5.550731056452952998e+02 2.875099263108277796e+02 4.012126274632771583e+02 5.667189343472093697e+02 4.645013177243686755e+02
3.622277364365011181e+02 4.578391955304536509e+02 6.340522306197655098e+02 5.662907519310008411e+02 2.911090083141149876e+02 3.808870486310987644e+02 5.678718373805146484e+02 4.739133960661599758e+02
3.570150857367797244e+02 4.792470916805601746e+02 6.530117741703505772e+02 5.622735005360860896e+02 2.841046606237354126e+02 3.983938774323842154e+02 5.677034574769321580e+02 4.594338707688046384e+02
3.530040723694698386e+02 4.554150392382567247e+02 6.220566812083488912e+02 5.511241617839633591e+02 2.768919249164010239e+02 3.872845525802405291e+02 5.347887981070382466e+02 4.402853201035058532e+02
3.458358265766689215e+02 4.471175405089050514e+02 6.502767745345477124e+02 5.430715109886626806e+02 2.835493465983855117e+02 3.711929617901037659e+02 5.250528582598892626e+02 4.602133343670519707e+02
3.464916254462488610e+02 4.495799442141212126e+02 6.350547869990747358e+02 5.545734345574584268e+02 2.825241551187282880e+02 3.712676712102780243e+02 5.413279850158293129e+02 4.362575572306312779e+02
3.398041447621608881e+02 4.650179294605082418e+02 6.334152391627471843e+02 5.466723349581321827e+02 2.753303919435234093e+02 3.822403116601890929e+02 5.377782785628867259e+02 4.463468428396499803e+02
3.354481925367339841e+02 4.561942723392787116e+02 6.390137022176581922e+02 5.591489131738401284e+02 2.747486757307641483e+02 3.903858472074952033e+02 5.590443829026838785e+02 4.519348906751127970e+02
3.426464131486649762e+02 4.693539822406909821e+02 6.646663402521016906e+02 5.621971879713318003e+02 2.885511163743264547e+02 3.670120276386541036e+02 5.559220138230355133e+02 4.502644962427294217e+02
3.348793807014854451e+02 4.645039735564740226e+02 6.647606363235190656e+02 5.805543698424698960e+02 2.678980740123647024e+02 3.867718021187178579e+02 5.530160502225418213e+02 4.424249697670294381e+02
